  i      u          v          w           r         dr         q/p       flat_r    lum (f/s)    restmass       rho      T [MeV]     T(K)         s         ah        ye 
  297 -8.965E+08  0.000E+00  0.000E+00  5.292E+07  5.455E+05  0.000E+00  0.000E+00  1.093E+02  1.347188E+00  2.374E+08  6.148E-01  7.134E+09  2.452E+00  5.36E+01  4.906E-01
  296 -9.015E+08  0.000E+00  0.000E+00  5.238E+07  5.402E+05  0.000E+00  0.000E+00  1.094E+02  1.344919E+00  2.522E+08  6.132E-01  7.116E+09  2.292E+00  5.40E+01  4.863E-01
  295 -9.051E+08  0.000E+00  0.000E+00  5.184E+07  5.349E+05  0.000E+00  0.000E+00  1.095E+02  1.342582E+00  2.661E+08  6.121E-01  7.104E+09  2.170E+00  5.43E+01  4.830E-01
  294 -9.096E+08  0.000E+00  0.000E+00  5.130E+07  5.297E+05  0.000E+00  0.000E+00  1.096E+02  1.340189E+00  2.791E+08  6.133E-01  7.117E+09  2.106E+00  5.44E+01  4.810E-01
  293 -9.158E+08  0.000E+00  0.000E+00  5.077E+07  5.245E+05  0.000E+00  0.000E+00  1.096E+02  1.337756E+00  2.918E+08  6.151E-01  7.137E+09  2.072E+00  5.45E+01  4.803E-01
  292 -9.218E+08  0.000E+00  0.000E+00  5.025E+07  5.194E+05  0.000E+00  0.000E+00  1.097E+02  1.335288E+00  3.046E+08  6.161E-01  7.150E+09  2.043E+00  5.45E+01  4.802E-01
  291 -9.265E+08  0.000E+00  0.000E+00  4.973E+07  5.144E+05  0.000E+00  0.000E+00  1.098E+02  1.332789E+00  3.176E+08  6.180E-01  7.172E+09  2.026E+00  5.45E+01  4.802E-01
  290 -9.306E+08  0.000E+00  0.000E+00  4.921E+07  5.094E+05  0.000E+00  0.000E+00  1.098E+02  1.330262E+00  3.308E+08  6.220E-01  7.218E+09  2.028E+00  5.45E+01  4.802E-01
  289 -9.348E+08  0.000E+00  0.000E+00  4.871E+07  5.044E+05  0.000E+00  0.000E+00  1.099E+02  1.327710E+00  3.442E+08  6.267E-01  7.272E+09  2.036E+00  5.45E+01  4.801E-01
  288 -9.388E+08  0.000E+00  0.000E+00  4.820E+07  4.995E+05  0.000E+00  0.000E+00  1.100E+02  1.325134E+00  3.579E+08  6.311E-01  7.324E+09  2.041E+00  5.45E+01  4.801E-01
  287 -9.428E+08  0.000E+00  0.000E+00  4.770E+07  4.946E+05  0.000E+00  0.000E+00  1.100E+02  1.322537E+00  3.720E+08  6.347E-01  7.365E+09  2.041E+00  5.45E+01  4.800E-01
  286 -9.467E+08  0.000E+00  0.000E+00  4.721E+07  4.898E+05  0.000E+00  0.000E+00  1.100E+02  1.319918E+00  3.867E+08  6.381E-01  7.405E+09  2.039E+00  5.45E+01  4.799E-01
  285 -9.507E+08  0.000E+00  0.000E+00  4.672E+07  4.850E+05  0.000E+00  0.000E+00  1.101E+02  1.317279E+00  4.020E+08  6.414E-01  7.444E+09  2.036E+00  5.44E+01  4.798E-01
  284 -9.546E+08  0.000E+00  0.000E+00  4.623E+07  4.803E+05  0.000E+00  0.000E+00  1.101E+02  1.314617E+00  4.181E+08  6.449E-01  7.484E+09  2.034E+00  5.44E+01  4.798E-01
  283 -9.584E+08  0.000E+00  0.000E+00  4.575E+07  4.756E+05  0.000E+00  0.000E+00  1.102E+02  1.311933E+00  4.349E+08  6.483E-01  7.524E+09  2.031E+00  5.44E+01  4.797E-01
  282 -9.622E+08  0.000E+00  0.000E+00  4.528E+07  4.710E+05  0.000E+00  0.000E+00  1.102E+02  1.309225E+00  4.525E+08  6.520E-01  7.566E+09  2.030E+00  5.44E+01  4.796E-01
  281 -9.661E+08  0.000E+00  0.000E+00  4.481E+07  4.664E+05  0.000E+00  0.000E+00  1.102E+02  1.306493E+00  4.708E+08  6.558E-01  7.610E+09  2.029E+00  5.44E+01  4.795E-01
  280 -9.700E+08  0.000E+00  0.000E+00  4.434E+07  4.618E+05  0.000E+00  0.000E+00  1.102E+02  1.303736E+00  4.898E+08  6.597E-01  7.655E+09  2.029E+00  5.44E+01  4.794E-01
  279 -9.737E+08  0.000E+00  0.000E+00  4.388E+07  4.573E+05  0.000E+00  0.000E+00  1.103E+02  1.300955E+00  5.095E+08  6.634E-01  7.698E+09  2.027E+00  5.44E+01  4.794E-01
  278 -9.775E+08  0.000E+00  0.000E+00  4.342E+07  4.529E+05  0.000E+00  0.000E+00  1.103E+02  1.298149E+00  5.300E+08  6.670E-01  7.740E+09  2.025E+00  5.44E+01  4.793E-01
  277 -9.812E+08  0.000E+00  0.000E+00  4.297E+07  4.485E+05  0.000E+00  0.000E+00  1.103E+02  1.295319E+00  5.513E+08  6.707E-01  7.784E+09  2.024E+00  5.44E+01  4.792E-01
  276 -9.849E+08  0.000E+00  0.000E+00  4.252E+07  4.441E+05  0.000E+00  0.000E+00  1.103E+02  1.292465E+00  5.735E+08  6.745E-01  7.827E+09  2.022E+00  5.44E+01  4.791E-01
  275 -9.886E+08  0.000E+00  0.000E+00  4.207E+07  4.398E+05  0.000E+00  0.000E+00  1.103E+02  1.289586E+00  5.965E+08  6.784E-01  7.872E+09  2.021E+00  5.44E+01  4.790E-01
  274 -9.922E+08  0.000E+00  0.000E+00  4.163E+07  4.355E+05  0.000E+00  0.000E+00  1.103E+02  1.286681E+00  6.205E+08  6.823E-01  7.918E+09  2.020E+00  5.44E+01  4.789E-01
  273 -9.960E+08  0.000E+00  0.000E+00  4.120E+07  4.312E+05  0.000E+00  0.000E+00  1.103E+02  1.283752E+00  6.453E+08  6.863E-01  7.965E+09  2.020E+00  5.43E+01  4.788E-01
  272 -1.000E+09  0.000E+00  0.000E+00  4.077E+07  4.270E+05  0.000E+00  0.000E+00  1.103E+02  1.280799E+00  6.707E+08  6.903E-01  8.011E+09  2.019E+00  5.43E+01  4.786E-01
  271 -1.005E+09  0.000E+00  0.000E+00  4.034E+07  4.229E+05  0.000E+00  0.000E+00  1.103E+02  1.277822E+00  6.965E+08  6.939E-01  8.053E+09  2.015E+00  5.43E+01  4.785E-01
  270 -1.011E+09  0.000E+00  0.000E+00  3.992E+07  4.188E+05  0.000E+00  0.000E+00  1.104E+02  1.274825E+00  7.229E+08  6.974E-01  8.094E+09  2.012E+00  5.43E+01  4.784E-01
  269 -1.017E+09  0.000E+00  0.000E+00  3.950E+07  4.147E+05  0.000E+00  0.000E+00  1.104E+02  1.271808E+00  7.500E+08  7.009E-01  8.134E+09  2.008E+00  5.43E+01  4.783E-01
  268 -1.023E+09  0.000E+00  0.000E+00  3.908E+07  4.106E+05  0.000E+00  0.000E+00  1.104E+02  1.268774E+00  7.779E+08  7.046E-01  8.176E+09  2.006E+00  5.43E+01  4.782E-01
  267 -1.028E+09  0.000E+00  0.000E+00  3.867E+07  4.066E+05  0.000E+00  0.000E+00  1.104E+02  1.265722E+00  8.068E+08  7.084E-01  8.221E+09  2.005E+00  5.42E+01  4.781E-01
  266 -1.034E+09  0.000E+00  0.000E+00  3.827E+07  4.027E+05  0.000E+00  0.000E+00  1.104E+02  1.262654E+00  8.369E+08  7.123E-01  8.266E+09  2.005E+00  5.42E+01  4.779E-01
  265 -1.040E+09  0.000E+00  0.000E+00  3.786E+07  3.987E+05  0.000E+00  0.000E+00  1.104E+02  1.259568E+00  8.682E+08  7.162E-01  8.312E+09  2.004E+00  5.42E+01  4.778E-01
  264 -1.045E+09  0.000E+00  0.000E+00  3.747E+07  3.949E+05  0.000E+00  0.000E+00  1.104E+02  1.256464E+00  9.006E+08  7.202E-01  8.358E+09  2.004E+00  5.42E+01  4.777E-01
  263 -1.051E+09  0.000E+00  0.000E+00  3.707E+07  3.910E+05  0.000E+00  0.000E+00  1.104E+02  1.253343E+00  9.343E+08  7.243E-01  8.406E+09  2.004E+00  5.42E+01  4.775E-01
  262 -1.057E+09  0.000E+00  0.000E+00  3.668E+07  3.872E+05  0.000E+00  0.000E+00  1.104E+02  1.250204E+00  9.692E+08  7.280E-01  8.448E+09  2.001E+00  5.42E+01  4.774E-01
  261 -1.062E+09  0.000E+00  0.000E+00  3.629E+07  3.834E+05  0.000E+00  0.000E+00  1.104E+02  1.247046E+00  1.005E+09  7.316E-01  8.490E+09  1.999E+00  5.42E+01  4.773E-01
  260 -1.068E+09  0.000E+00  0.000E+00  3.591E+07  3.797E+05  0.000E+00  0.000E+00  1.104E+02  1.243872E+00  1.043E+09  7.353E-01  8.533E+09  1.997E+00  5.42E+01  4.771E-01
  259 -1.073E+09  0.000E+00  0.000E+00  3.553E+07  3.760E+05  0.000E+00  0.000E+00  1.104E+02  1.240679E+00  1.082E+09  7.390E-01  8.576E+09  1.993E+00  5.42E+01  4.770E-01
  258 -1.079E+09  0.000E+00  0.000E+00  3.515E+07  3.723E+05  0.000E+00  0.000E+00  1.104E+02  1.237468E+00  1.122E+09  7.428E-01  8.620E+09  1.991E+00  5.42E+01  4.768E-01
  257 -1.085E+09  0.000E+00  0.000E+00  3.478E+07  3.687E+05  0.000E+00  0.000E+00  1.104E+02  1.234239E+00  1.164E+09  7.467E-01  8.665E+09  1.988E+00  5.42E+01  4.766E-01
  256 -1.091E+09  0.000E+00  0.000E+00  3.441E+07  3.651E+05  0.000E+00  0.000E+00  1.103E+02  1.230992E+00  1.208E+09  7.506E-01  8.710E+09  1.985E+00  5.42E+01  4.765E-01
  255 -1.097E+09  0.000E+00  0.000E+00  3.405E+07  3.616E+05  0.000E+00  0.000E+00  1.103E+02  1.227727E+00  1.252E+09  7.547E-01  8.758E+09  1.984E+00  5.42E+01  4.763E-01
  254 -1.102E+09  0.000E+00  0.000E+00  3.369E+07  3.580E+05  0.000E+00  0.000E+00  1.103E+02  1.224445E+00  1.298E+09  7.591E-01  8.808E+09  1.984E+00  5.42E+01  4.761E-01
  253 -1.109E+09  0.000E+00  0.000E+00  3.333E+07  3.545E+05  0.000E+00  0.000E+00  1.103E+02  1.221147E+00  1.346E+09  7.632E-01  8.857E+09  1.983E+00  5.42E+01  4.760E-01
  252 -1.115E+09  0.000E+00  0.000E+00  3.297E+07  3.511E+05  0.000E+00  0.000E+00  1.103E+02  1.217834E+00  1.394E+09  7.677E-01  8.909E+09  1.985E+00  5.41E+01  4.758E-01
  251 -1.121E+09  0.000E+00  0.000E+00  3.262E+07  3.477E+05  0.000E+00  0.000E+00  1.103E+02  1.214507E+00  1.444E+09  7.723E-01  8.962E+09  1.987E+00  5.41E+01  4.756E-01
  250 -1.127E+09  0.000E+00  0.000E+00  3.227E+07  3.443E+05  0.000E+00  0.000E+00  1.102E+02  1.211167E+00  1.496E+09  7.769E-01  9.016E+09  1.990E+00  5.40E+01  4.754E-01
  249 -1.133E+09  0.000E+00  0.000E+00  3.193E+07  3.409E+05  0.000E+00  0.000E+00  1.102E+02  1.207813E+00  1.550E+09  7.816E-01  9.070E+09  1.992E+00  5.40E+01  4.752E-01
  248 -1.139E+09  0.000E+00  0.000E+00  3.159E+07  3.376E+05  0.000E+00  0.000E+00  1.102E+02  1.204445E+00  1.605E+09  7.863E-01  9.125E+09  1.994E+00  5.40E+01  4.750E-01
  247 -1.146E+09  0.000E+00  0.000E+00  3.125E+07  3.343E+05  0.000E+00  0.000E+00  1.102E+02  1.201063E+00  1.664E+09  7.909E-01  9.178E+09  1.995E+00  5.40E+01  4.748E-01
  246 -1.152E+09  0.000E+00  0.000E+00  3.092E+07  3.310E+05  0.000E+00  0.000E+00  1.102E+02  1.197667E+00  1.724E+09  7.951E-01  9.227E+09  1.992E+00  5.40E+01  4.746E-01
  245 -1.158E+09  0.000E+00  0.000E+00  3.059E+07  3.278E+05  0.000E+00  0.000E+00  1.101E+02  1.194256E+00  1.787E+09  7.988E-01  9.270E+09  1.989E+00  5.40E+01  4.744E-01
  244 -1.164E+09  0.000E+00  0.000E+00  3.026E+07  3.246E+05  0.000E+00  0.000E+00  1.101E+02  1.190830E+00  1.852E+09  8.025E-01  9.313E+09  1.985E+00  5.40E+01  4.742E-01
  243 -1.171E+09  0.000E+00  0.000E+00  2.993E+07  3.215E+05  0.000E+00  0.000E+00  1.101E+02  1.187389E+00  1.920E+09  8.061E-01  9.355E+09  1.979E+00  5.40E+01  4.740E-01
  242 -1.177E+09  0.000E+00  0.000E+00  2.961E+07  3.183E+05  0.000E+00  0.000E+00  1.101E+02  1.183932E+00  1.989E+09  8.100E-01  9.400E+09  1.975E+00  5.41E+01  4.738E-01
  241 -1.183E+09  0.000E+00  0.000E+00  2.929E+07  3.152E+05  0.000E+00  0.000E+00  1.100E+02  1.180460E+00  2.061E+09  8.141E-01  9.447E+09  1.973E+00  5.41E+01  4.736E-01
  240 -1.190E+09  0.000E+00  0.000E+00  2.898E+07  3.122E+05  0.000E+00  0.000E+00  1.100E+02  1.176975E+00  2.135E+09  8.183E-01  9.496E+09  1.971E+00  5.41E+01  4.734E-01
  239 -1.197E+09  0.000E+00  0.000E+00  2.867E+07  3.091E+05  0.000E+00  0.000E+00  1.100E+02  1.173475E+00  2.213E+09  8.227E-01  9.547E+09  1.969E+00  5.41E+01  4.732E-01
  238 -1.203E+09  0.000E+00  0.000E+00  2.836E+07  3.061E+05  0.000E+00  0.000E+00  1.099E+02  1.169962E+00  2.292E+09  8.273E-01  9.600E+09  1.969E+00  5.41E+01  4.729E-01
  237 -1.209E+09  0.000E+00  0.000E+00  2.805E+07  3.031E+05  0.000E+00  0.000E+00  1.099E+02  1.166435E+00  2.374E+09  8.321E-01  9.656E+09  1.969E+00  5.41E+01  4.727E-01
  236 -1.216E+09  0.000E+00  0.000E+00  2.775E+07  3.002E+05  0.000E+00  0.000E+00  1.099E+02  1.162894E+00  2.460E+09  8.360E-01  9.701E+09  1.964E+00  5.41E+01  4.725E-01
  235 -1.223E+09  0.000E+00  0.000E+00  2.745E+07  2.972E+05  0.000E+00  0.000E+00  1.098E+02  1.159340E+00  2.549E+09  8.401E-01  9.749E+09  1.961E+00  5.40E+01  4.722E-01
  234 -1.229E+09  0.000E+00  0.000E+00  2.715E+07  2.943E+05  0.000E+00  0.000E+00  1.098E+02  1.155771E+00  2.640E+09  8.447E-01  9.802E+09  1.959E+00  5.40E+01  4.720E-01
  233 -1.235E+09  0.000E+00  0.000E+00  2.686E+07  2.915E+05  0.000E+00  0.000E+00  1.098E+02  1.152189E+00  2.736E+09  8.491E-01  9.853E+09  1.956E+00  5.40E+01  4.717E-01
  232 -1.242E+09  0.000E+00  0.000E+00  2.657E+07  2.886E+05  0.000E+00  0.000E+00  1.097E+02  1.148593E+00  2.837E+09  8.534E-01  9.904E+09  1.952E+00  5.39E+01  4.715E-01
  231 -1.248E+09  0.000E+00  0.000E+00  2.628E+07  2.858E+05  0.000E+00  0.000E+00  1.097E+02  1.144981E+00  2.939E+09  8.580E-01  9.957E+09  1.949E+00  5.39E+01  4.712E-01
  230 -1.254E+09  0.000E+00  0.000E+00  2.599E+07  2.830E+05  0.000E+00  0.000E+00  1.097E+02  1.141356E+00  3.045E+09  8.629E-01  1.001E+10  1.948E+00  5.39E+01  4.709E-01
  229 -1.261E+09  0.000E+00  0.000E+00  2.571E+07  2.803E+05  0.000E+00  0.000E+00  1.096E+02  1.137717E+00  3.157E+09  8.678E-01  1.007E+10  1.946E+00  5.38E+01  4.707E-01
  228 -1.267E+09  0.000E+00  0.000E+00  2.543E+07  2.775E+05  0.000E+00  0.000E+00  1.096E+02  1.134062E+00  3.274E+09  8.719E-01  1.012E+10  1.939E+00  5.38E+01  4.704E-01
  227 -1.273E+09  0.000E+00  0.000E+00  2.515E+07  2.748E+05  0.000E+00  0.000E+00  1.095E+02  1.130390E+00  3.392E+09  8.758E-01  1.016E+10  1.934E+00  5.39E+01  4.701E-01
  226 -1.279E+09  0.000E+00  0.000E+00  2.487E+07  2.722E+05  0.000E+00  0.000E+00  1.095E+02  1.126704E+00  3.516E+09  8.801E-01  1.021E+10  1.932E+00  5.39E+01  4.698E-01
  225 -1.286E+09  0.000E+00  0.000E+00  2.460E+07  2.695E+05  0.000E+00  0.000E+00  1.095E+02  1.123003E+00  3.645E+09  8.841E-01  1.026E+10  1.926E+00  5.39E+01  4.696E-01
  224 -1.291E+09  0.000E+00  0.000E+00  2.433E+07  2.669E+05  0.000E+00  0.000E+00  1.094E+02  1.119286E+00  3.778E+09  8.881E-01  1.031E+10  1.921E+00  5.39E+01  4.693E-01
  223 -1.297E+09  0.000E+00  0.000E+00  2.407E+07  2.643E+05  0.000E+00  0.000E+00  1.094E+02  1.115554E+00  3.917E+09  8.925E-01  1.036E+10  1.917E+00  5.39E+01  4.690E-01
  222 -1.304E+09  0.000E+00  0.000E+00  2.380E+07  2.617E+05  0.000E+00  0.000E+00  1.093E+02  1.111806E+00  4.062E+09  8.975E-01  1.042E+10  1.918E+00  5.39E+01  4.687E-01
  221 -1.309E+09  0.000E+00  0.000E+00  2.354E+07  2.592E+05  0.000E+00  0.000E+00  1.093E+02  1.108042E+00  4.211E+09  9.023E-01  1.047E+10  1.916E+00  5.39E+01  4.684E-01
  220 -1.315E+09  0.000E+00  0.000E+00  2.328E+07  2.566E+05  0.000E+00  0.000E+00  1.092E+02  1.104263E+00  4.367E+09  9.066E-01  1.052E+10  1.909E+00  5.40E+01  4.681E-01
  219 -1.321E+09  0.000E+00  0.000E+00  2.302E+07  2.541E+05  0.000E+00  0.000E+00  1.092E+02  1.100466E+00  4.532E+09  9.115E-01  1.058E+10  1.907E+00  5.40E+01  4.678E-01
  218 -1.327E+09  0.000E+00  0.000E+00  2.277E+07  2.517E+05  0.000E+00  0.000E+00  1.092E+02  1.096651E+00  4.697E+09  9.162E-01  1.063E+10  1.905E+00  5.40E+01  4.675E-01
  217 -1.332E+09  0.000E+00  0.000E+00  2.252E+07  2.492E+05  0.000E+00  0.000E+00  1.091E+02  1.092820E+00  4.867E+09  9.209E-01  1.069E+10  1.904E+00  5.40E+01  4.671E-01
  216 -1.338E+09  0.000E+00  0.000E+00  2.227E+07  2.468E+05  0.000E+00  0.000E+00  1.091E+02  1.088977E+00  5.051E+09  9.253E-01  1.074E+10  1.897E+00  5.39E+01  4.668E-01
  215 -1.344E+09  0.000E+00  0.000E+00  2.202E+07  2.444E+05  0.000E+00  0.000E+00  1.090E+02  1.085114E+00  5.242E+09  9.292E-01  1.078E+10  1.887E+00  5.39E+01  4.666E-01
  214 -1.349E+09  0.000E+00  0.000E+00  2.178E+07  2.420E+05  0.000E+00  0.000E+00  1.090E+02  1.081231E+00  5.434E+09  9.341E-01  1.084E+10  1.884E+00  5.39E+01  4.663E-01
  213 -1.354E+09  0.000E+00  0.000E+00  2.154E+07  2.396E+05  0.000E+00  0.000E+00  1.089E+02  1.077334E+00  5.636E+09  9.399E-01  1.091E+10  1.887E+00  5.38E+01  4.659E-01
  212 -1.360E+09  0.000E+00  0.000E+00  2.130E+07  2.373E+05  0.000E+00  0.000E+00  1.089E+02  1.073419E+00  5.848E+09  9.455E-01  1.097E+10  1.887E+00  5.38E+01  4.655E-01
  211 -1.365E+09  0.000E+00  0.000E+00  2.106E+07  2.350E+05  0.000E+00  0.000E+00  1.088E+02  1.069486E+00  6.068E+09  9.501E-01  1.102E+10  1.879E+00  5.37E+01  4.653E-01
  210 -1.370E+09  0.000E+00  0.000E+00  2.082E+07  2.327E+05  0.000E+00  0.000E+00  1.088E+02  1.065534E+00  6.301E+09  9.542E-01  1.107E+10  1.868E+00  5.37E+01  4.650E-01
  209 -1.376E+09  0.000E+00  0.000E+00  2.059E+07  2.304E+05  0.000E+00  0.000E+00  1.087E+02  1.061561E+00  6.542E+09  9.588E-01  1.113E+10  1.862E+00  5.37E+01  4.647E-01
  208 -1.381E+09  0.000E+00  0.000E+00  2.036E+07  2.282E+05  0.000E+00  0.000E+00  1.087E+02  1.057566E+00  6.779E+09  9.643E-01  1.119E+10  1.866E+00  5.37E+01  4.643E-01
  207 -1.386E+09  0.000E+00  0.000E+00  2.013E+07  2.260E+05  0.000E+00  0.000E+00  1.086E+02  1.053559E+00  7.018E+09  9.698E-01  1.125E+10  1.871E+00  5.37E+01  4.639E-01
  206 -1.394E+09  0.000E+00  0.000E+00  1.991E+07  2.238E+05  0.000E+00  0.000E+00  1.086E+02  1.049542E+00  7.277E+09  9.743E-01  1.131E+10  1.864E+00  5.37E+01  4.635E-01
  205 -1.402E+09  0.000E+00  0.000E+00  1.968E+07  2.216E+05  0.000E+00  0.000E+00  1.086E+02  1.045510E+00  7.545E+09  9.771E-01  1.134E+10  1.846E+00  5.37E+01  4.633E-01
  204 -1.410E+09  0.000E+00  0.000E+00  1.946E+07  2.194E+05  0.000E+00  0.000E+00  1.085E+02  1.041462E+00  7.805E+09  9.801E-01  1.137E+10  1.832E+00  5.38E+01  4.630E-01
  203 -1.419E+09  0.000E+00  0.000E+00  1.924E+07  2.173E+05  0.000E+00  0.000E+00  1.085E+02  1.037409E+00  8.065E+09  9.852E-01  1.143E+10  1.832E+00  5.38E+01  4.627E-01
  202 -1.431E+09  0.000E+00  0.000E+00  1.903E+07  2.152E+05  0.000E+00  0.000E+00  1.085E+02  1.033355E+00  8.332E+09  9.922E-01  1.151E+10  1.845E+00  5.38E+01  4.623E-01
  201 -1.441E+09  0.000E+00  0.000E+00  1.881E+07  2.131E+05  0.000E+00  0.000E+00  1.085E+02  1.029301E+00  8.593E+09  9.994E-01  1.160E+10  1.860E+00  5.38E+01  4.618E-01
  200 -1.449E+09  0.000E+00  0.000E+00  1.860E+07  2.110E+05  0.000E+00  0.000E+00  1.085E+02  1.025253E+00  8.868E+09  1.004E+00  1.165E+10  1.858E+00  5.38E+01  4.614E-01
  199 -1.460E+09  0.000E+00  0.000E+00  1.839E+07  2.089E+05  0.000E+00  0.000E+00  1.085E+02  1.021210E+00  9.190E+09  1.006E+00  1.168E+10  1.837E+00  5.38E+01  4.611E-01
  198 -1.470E+09  0.000E+00  0.000E+00  1.818E+07  2.069E+05  0.000E+00  0.000E+00  1.085E+02  1.017155E+00  9.533E+09  1.007E+00  1.169E+10  1.804E+00  5.39E+01  4.608E-01
  197 -1.479E+09  0.000E+00  0.000E+00  1.797E+07  2.049E+05  0.000E+00  0.000E+00  1.085E+02  1.013083E+00  9.876E+09  1.007E+00  1.168E+10  1.763E+00  5.39E+01  4.607E-01
  196 -1.489E+09  0.000E+00  0.000E+00  1.777E+07  2.029E+05  0.000E+00  0.000E+00  1.085E+02  1.009001E+00  1.026E+10  1.004E+00  1.165E+10  1.703E+00  5.40E+01  4.605E-01
  195 -1.499E+09  0.000E+00  0.000E+00  1.756E+07  2.009E+05  0.000E+00  0.000E+00  1.085E+02  1.004898E+00  1.070E+10  9.948E-01  1.154E+10  1.608E+00  5.42E+01  4.604E-01
  194 -1.510E+09  0.000E+00  0.000E+00  1.736E+07  1.989E+05  0.000E+00  0.000E+00  1.085E+02  1.000757E+00  1.115E+10  9.853E-01  1.143E+10  1.520E+00  5.44E+01  4.603E-01
  193 -1.520E+09  0.000E+00  0.000E+00  1.716E+07  1.970E+05  0.000E+00  0.000E+00  1.085E+02  9.965808E-01  1.158E+10  9.798E-01  1.137E+10  1.460E+00  5.45E+01  4.601E-01
  192 -1.530E+09  0.000E+00  0.000E+00  1.697E+07  1.951E+05  0.000E+00  0.000E+00  1.084E+02  9.923830E-01  1.202E+10  9.767E-01  1.133E+10  1.415E+00  5.46E+01  4.599E-01
  191 -1.541E+09  0.000E+00  0.000E+00  1.677E+07  1.932E+05  0.000E+00  0.000E+00  1.084E+02  9.881675E-01  1.247E+10  9.742E-01  1.131E+10  1.375E+00  5.47E+01  4.596E-01
  190 -1.551E+09  0.000E+00  0.000E+00  1.658E+07  1.913E+05  0.000E+00  0.000E+00  1.084E+02  9.839340E-01  1.292E+10  9.744E-01  1.131E+10  1.350E+00  5.47E+01  4.593E-01
  189 -1.562E+09  0.000E+00  0.000E+00  1.639E+07  1.894E+05  0.000E+00  0.000E+00  1.084E+02  9.796896E-01  1.336E+10  9.790E-01  1.136E+10  1.348E+00  5.47E+01  4.589E-01
  188 -1.572E+09  0.000E+00  0.000E+00  1.620E+07  1.876E+05  0.000E+00  0.000E+00  1.084E+02  9.754432E-01  1.381E+10  9.856E-01  1.144E+10  1.354E+00  5.47E+01  4.586E-01
  187 -1.583E+09  0.000E+00  0.000E+00  1.601E+07  1.858E+05  0.000E+00  0.000E+00  1.084E+02  9.711989E-01  1.426E+10  9.924E-01  1.152E+10  1.360E+00  5.47E+01  4.582E-01
  186 -1.594E+09  0.000E+00  0.000E+00  1.582E+07  1.840E+05  0.000E+00  0.000E+00  1.083E+02  9.669573E-01  1.474E+10  9.990E-01  1.159E+10  1.365E+00  5.47E+01  4.579E-01
  185 -1.605E+09  0.000E+00  0.000E+00  1.564E+07  1.822E+05  0.000E+00  0.000E+00  1.083E+02  9.627178E-01  1.523E+10  1.004E+00  1.165E+10  1.364E+00  5.47E+01  4.575E-01
  184 -1.616E+09  0.000E+00  0.000E+00  1.546E+07  1.804E+05  0.000E+00  0.000E+00  1.083E+02  9.584798E-01  1.574E+10  1.008E+00  1.170E+10  1.361E+00  5.47E+01  4.572E-01
